Frequency (Hz),Magnitude (dB),
10.766602,-8.141129,
12.112427,-8.203061,
13.458252,-8.258961,
14.804077,-8.290300,
16.149902,-8.321481,
17.495728,-8.337822,
18.841553,-8.355801,
20.187378,-8.363921,
21.533203,-8.374151,
22.879028,-8.377342,
24.224854,-8.382666,
25.570679,-8.382717,
26.916504,-8.384761,
28.262329,-8.382697,
29.608154,-8.382476,
30.953979,-8.378954,
32.299805,-8.377136,
33.645630,-8.372606,
34.991455,-8.369656,
36.337280,-8.364452,
37.683105,-8.360731,
39.028931,-8.355118,
40.374756,-8.350916,
41.720581,-8.345107,
43.066406,-8.340670,
44.412231,-8.334870,
45.758057,-8.330413,
47.103882,-8.324796,
48.449707,-8.320527,
49.795532,-8.315268,
51.141357,-8.311369,
52.487183,-8.306637,
53.833008,-8.303286,
55.178833,-8.299242,
56.524658,-8.296615,
57.870483,-8.293426,
59.216309,-8.291691,
60.562134,-8.289499,
61.907959,-8.288817,
63.253784,-8.287785,
64.599609,-8.288310,
65.945435,-8.288584,
67.291260,-8.290462,
68.637085,-8.292175,
69.982910,-8.295550,
71.328735,-8.298832,
72.674561,-8.303829,
74.020386,-8.308799,
75.366211,-8.315532,
76.712036,-8.322293,
78.057861,-8.330862,
79.403687,-8.339507,
80.749512,-8.349997,
82.095337,-8.360589,
83.441162,-8.373062,
84.786987,-8.385660,
86.132812,-8.400162,
87.478638,-8.414803,
88.824463,-8.431348,
90.170288,-8.448033,
91.516113,-8.466631,
92.861938,-8.485354,
94.207764,-8.505975,
95.553589,-8.526700,
96.899414,-8.549303,
98.245239,-8.571975,
99.591064,-8.596488,
100.936890,-8.621029,
102.282715,-8.647360,
103.628540,-8.673667,
104.974365,-8.701711,
106.320190,-8.729666,
107.666016,-8.759293,
109.011841,-8.788761,
110.357666,-8.819827,
111.703491,-8.850657,
113.049316,-8.883001,
114.395142,-8.915033,
115.740967,-8.948486,
117.086792,-8.981543,
118.432617,-9.015929,
119.778442,-9.049832,
121.124268,-9.084967,
122.470093,-9.119539,
123.815918,-9.155237,
125.161743,-9.190283,
126.507568,-9.226357,
127.853394,-9.261704,
129.199219,-9.297972,
130.545044,-9.333432,
131.890869,-9.369715,
133.236694,-9.405119,
134.582520,-9.441250,
135.928345,-9.476428,
137.274170,-9.512230,
138.619995,-9.547031,
139.965820,-9.582363,
141.311646,-9.616638,
142.657471,-9.651353,
144.003296,-9.684965,
145.349121,-9.718933,
146.694946,-9.751757,
148.040771,-9.784864,
149.386597,-9.816792,
150.732422,-9.848927,
152.078247,-9.879864,
153.424072,-9.910933,
154.769897,-9.940796,
156.115723,-9.970730,
157.461548,-9.999439,
158.807373,-10.028160,
160.153198,-10.055658,
161.499023,-10.083116,
162.844849,-10.109360,
164.190674,-10.135508,
165.536499,-10.160454,
166.882324,-10.185263,
168.228149,-10.208879,
169.573975,-10.232327,
170.919800,-10.254606,
172.265625,-10.276674,
173.611450,-10.297598,
174.957275,-10.318285,
176.303101,-10.337852,
177.648926,-10.357161,
178.994751,-10.375381,
180.340576,-10.393312,
181.686401,-10.410199,
183.032227,-10.426773,
184.378052,-10.442340,
185.723877,-10.457581,
187.069702,-10.471851,
188.415527,-10.485777,
189.761353,-10.498779,
191.107178,-10.511417,
192.453003,-10.523181,
193.798828,-10.534571,
195.144653,-10.545125,
196.490479,-10.555296,
197.836304,-10.564680,
199.182129,-10.573673,
200.527954,-10.581919,
201.873779,-10.589764,
203.219604,-10.596912,
204.565430,-10.603655,
205.911255,-10.609744,
207.257080,-10.615425,
208.602905,-10.620497,
209.948730,-10.625155,
211.294556,-10.629244,
212.640381,-10.632915,
213.986206,-10.636070,
215.332031,-10.638804,
216.677856,-10.641057,
218.023682,-10.642887,
219.369507,-10.644279,
220.715332,-10.645256,
222.061157,-10.645821,
223.406982,-10.645971,
224.752808,-10.645756,
226.098633,-10.645118,
227.444458,-10.644159,
228.790283,-10.642776,
230.136108,-10.641106,
231.481934,-10.639011,
232.827759,-10.636662,
234.173584,-10.633894,
235.519409,-10.630901,
236.865234,-10.627491,
238.211060,-10.623890,
239.556885,-10.619865,
240.902710,-10.615690,
242.248535,-10.611090,
243.594360,-10.606363,
244.940186,-10.601213,
246.286011,-10.595966,
247.631836,-10.590302,
248.977661,-10.584562,
250.323486,-10.578405,
251.669312,-10.572205,
253.015137,-10.565583,
254.360962,-10.558937,
255.706787,-10.551874,
257.052612,-10.544817,
258.398438,-10.537338,
259.744263,-10.529888,
261.090088,-10.522011,
262.435913,-10.514193,
263.781738,-10.505955,
265.127563,-10.497778,
266.473389,-10.489185,
267.819214,-10.480680,
269.165039,-10.471761,
270.510864,-10.462947,
271.856689,-10.453707,
273.202515,-10.444601,
274.548340,-10.435074,
275.894165,-10.425689,
277.239990,-10.415878,
278.585815,-10.406235,
279.931641,-10.396168,
281.277466,-10.386271,
282.623291,-10.375957,
283.969116,-10.365829,
285.314941,-10.355286,
286.660767,-10.344938,
288.006592,-10.334170,
289.352417,-10.323618,
290.698242,-10.312643,
292.044067,-10.301901,
293.389893,-10.290732,
294.735718,-10.279799,
296.081543,-10.268450,
297.427368,-10.257341,
298.773193,-10.245818,
300.119019,-10.234550,
301.464844,-10.222863,
302.810669,-10.211441,
304.156494,-10.199598,
305.502319,-10.188029,
306.848145,-10.176046,
308.193970,-10.164341,
309.539795,-10.152215,
310.885620,-10.140383,
312.231445,-10.128129,
313.577271,-10.116171,
314.923096,-10.103798,
316.268921,-10.091722,
317.614746,-10.079238,
318.960571,-10.067049,
320.306396,-10.054451,
321.652222,-10.042162,
322.998047,-10.029463,
324.343872,-10.017075,
325.689697,-10.004278,
327.035522,-9.991800,
328.381348,-9.978909,
329.727173,-9.966340,
331.072998,-9.953358,
332.418823,-9.940707,
333.764648,-9.927647,
335.110474,-9.914917,
336.456299,-9.901774,
337.802124,-9.888966,
339.147949,-9.875749,
340.493774,-9.862866,
341.839600,-9.849582,
343.185425,-9.836634,
344.531250,-9.823277,
345.877075,-9.810263,
347.222900,-9.796840,
348.568726,-9.783762,
349.914551,-9.770279,
351.260376,-9.757141,
352.606201,-9.743595,
353.952026,-9.730399,
355.297852,-9.716802,
356.643677,-9.703548,
357.989502,-9.689896,
359.335327,-9.676587,
360.681152,-9.662886,
362.026978,-9.649527,
363.372803,-9.635769,
364.718628,-9.622355,
366.064453,-9.608553,
367.410278,-9.595097,
368.756104,-9.581244,
370.101929,-9.567743,
371.447754,-9.553846,
372.793579,-9.540295,
374.139404,-9.526351,
375.485229,-9.512760,
376.831055,-9.498775,
378.176880,-9.485140,
379.522705,-9.471113,
380.868530,-9.457436,
382.214355,-9.443371,
383.560181,-9.429649,
384.906006,-9.415543,
386.251831,-9.401787,
387.597656,-9.387644,
388.943481,-9.373853,
390.289307,-9.359664,
391.635132,-9.345830,
392.980957,-9.331614,
394.326782,-9.317740,
395.672607,-9.303488,
397.018433,-9.289577,
398.364258,-9.275289,
399.710083,-9.261345,
401.055908,-9.247022,
402.401733,-9.233042,
403.747559,-9.218685,
405.093384,-9.204671,
406.439209,-9.190278,
407.785034,-9.176231,
409.130859,-9.161812,
410.476685,-9.147729,
411.822510,-9.133272,
413.168335,-9.119159,
414.514160,-9.104676,
415.859985,-9.090526,
417.205811,-9.076014,
418.551636,-9.061831,
419.897461,-9.047289,
421.243286,-9.033077,
422.589111,-9.018503,
423.934937,-9.004260,
425.280762,-8.989664,
426.626587,-8.975389,
427.972412,-8.960761,
429.318237,-8.946460,
430.664062,-8.931806,
432.009888,-8.917473,
433.355713,-8.902795,
434.701538,-8.888433,
436.047363,-8.873725,
437.393188,-8.859342,
438.739014,-8.844604,
440.084839,-8.830194,
441.430664,-8.815439,
442.776489,-8.800998,
444.122314,-8.786221,
445.468140,-8.771759,
446.813965,-8.756956,
448.159790,-8.742468,
449.505615,-8.727644,
450.851440,-8.713134,
452.197266,-8.698292,
453.543091,-8.683762,
454.888916,-8.668896,
456.234741,-8.654345,
457.580566,-8.639464,
458.926392,-8.624893,
460.272217,-8.609992,
461.618042,-8.595405,
462.963867,-8.580492,
464.309692,-8.565883,
465.655518,-8.550958,
467.001343,-8.536331,
468.347168,-8.521395,
469.692993,-8.506754,
471.038818,-8.491804,
472.384644,-8.477154,
473.730469,-8.462196,
475.076294,-8.447534,
476.422119,-8.432564,
477.767944,-8.417894,
479.113770,-8.402924,
480.459595,-8.388241,
481.805420,-8.373264,
483.151245,-8.358582,
484.497070,-8.343597,
485.842896,-8.328913,
487.188721,-8.313935,
488.534546,-8.299246,
489.880371,-8.284267,
491.226196,-8.269579,
492.572021,-8.254606,
493.917847,-8.239922,
495.263672,-8.224957,
496.609497,-8.210274,
497.955322,-8.195318,
499.301147,-8.180649,
500.646973,-8.165703,
501.992798,-8.151043,
503.338623,-8.136110,
504.684448,-8.121464,
506.030273,-8.106553,
507.376099,-8.091922,
508.721924,-8.077029,
510.067749,-8.062420,
511.413574,-8.047551,
512.759399,-8.032958,
514.105225,-8.018121,
515.451050,-8.003554,
516.796875,-7.988742,
518.142700,-7.974207,
519.488525,-7.959430,
520.834351,-7.944926,
522.180176,-7.930184,
523.526001,-7.915716,
524.871826,-7.901012,
526.217651,-7.886588,
527.563477,-7.871928,
528.909302,-7.857545,
530.255127,-7.842934,
531.600952,-7.828597,
532.946777,-7.814037,
534.292603,-7.799749,
535.638428,-7.785246,
536.984253,-7.771013,
538.330078,-7.756569,
539.675903,-7.742399,
541.021729,-7.728018,
542.367554,-7.713905,
543.713379,-7.699596,
545.059204,-7.685552,
546.405029,-7.671309,
547.750854,-7.657339,
549.096680,-7.643176,
550.442505,-7.629282,
551.788330,-7.615199,
553.134155,-7.601384,
554.479980,-7.587391,
555.825806,-7.573658,
557.171631,-7.559752,
558.517456,-7.546114,
559.863281,-7.532305,
561.209106,-7.518760,
562.554932,-7.505048,
563.900757,-7.491599,
565.246582,-7.477996,
566.592407,-7.464652,
567.938232,-7.451158,
569.284058,-7.437922,
570.629883,-7.424541,
571.975708,-7.411421,
573.321533,-7.398156,
574.667358,-7.385158,
576.013184,-7.372018,
577.359009,-7.359141,
578.704834,-7.346130,
580.050659,-7.333379,
581.396484,-7.320507,
582.742310,-7.307892,
584.088135,-7.295153,
585.433960,-7.282677,
586.779785,-7.270083,
588.125610,-7.257751,
589.471436,-7.245306,
590.817261,-7.233121,
592.163086,-7.220829,
593.508911,-7.208798,
594.854736,-7.196663,
596.200562,-7.184790,
597.546387,-7.172823,
598.892212,-7.161107,
600.238037,-7.149307,
601.583862,-7.137763,
602.929688,-7.126134,
604.275513,-7.114761,
605.621338,-7.103310,
606.967163,-7.092113,
608.312988,-7.080844,
609.658813,-7.069827,
611.004639,-7.058742,
612.350464,-7.047911,
613.696289,-7.037019,
615.042114,-7.026379,
616.387939,-7.015681,
617.733765,-7.005235,
619.079590,-6.994735,
620.425415,-6.984486,
621.771240,-6.974187,
623.117065,-6.964142,
624.462891,-6.954053,
625.808716,-6.944211,
627.154541,-6.934331,
628.500366,-6.924700,
629.846191,-6.915036,
631.192017,-6.905614,
632.537842,-6.896165,
633.883667,-6.886963,
635.229492,-6.877732,
636.575317,-6.868752,
637.921143,-6.859747,
639.266968,-6.850986,
640.612793,-6.842208,
641.958618,-6.833671,
643.304443,-6.825118,
644.650269,-6.816813,
645.996094,-6.808495,
647.341919,-6.800420,
648.687744,-6.792334,
650.033569,-6.784490,
651.379395,-6.776640,
652.725220,-6.769032,
654.071045,-6.761417,
655.416870,-6.754048,
656.762695,-6.746674,
658.108521,-6.739539,
659.454346,-6.732409,
660.800171,-6.725513,
662.145996,-6.718626,
663.491821,-6.711969,
664.837646,-6.705324,
666.183472,-6.698910,
667.529297,-6.692514,
668.875122,-6.686340,
670.220947,-6.680186,
671.566772,-6.674257,
672.912598,-6.668353,
674.258423,-6.662665,
675.604248,-6.656999,
676.950073,-6.651557,
678.295898,-6.646142,
679.641724,-6.640941,
680.987549,-6.635772,
682.333374,-6.630815,
683.679199,-6.625889,
685.025024,-6.621174,
686.370850,-6.616493,
687.716675,-6.612020,
689.062500,-6.607583,
690.408325,-6.603352,
691.754150,-6.599157,
693.099976,-6.595165,
694.445801,-6.591210,
695.791626,-6.587458,
697.137451,-6.583742,
698.483276,-6.580226,
699.829102,-6.576751,
701.174927,-6.573467,
702.520752,-6.570229,
703.866577,-6.567179,
705.212402,-6.564177,
706.558228,-6.561357,
707.904053,-6.558581,
709.249878,-6.555994,
710.595703,-6.553452,
711.941528,-6.551090,
713.287354,-6.548772,
714.633179,-6.546636,
715.979004,-6.544544,
717.324829,-6.542626,
718.670654,-6.540753,
720.016479,-6.539057,
721.362305,-6.537405,
722.708130,-6.535922,
724.053955,-6.534487,
725.399780,-6.533214,
726.745605,-6.531992,
728.091431,-6.530928,
729.437256,-6.529912,
730.783081,-6.529057,
732.128906,-6.528250,
733.474731,-6.527595,
734.820557,-6.526983,
736.166382,-6.526527,
737.512207,-6.526122,
738.858032,-6.525856,
740.203857,-6.525642,
741.549683,-6.525572,
742.895508,-6.525546,
744.241333,-6.525665,
745.587158,-6.525827,
746.932983,-6.526126,
748.278809,-6.526473,
749.624634,-6.526950,
750.970459,-6.527474,
752.316284,-6.528128,
753.662109,-6.528826,
755.007935,-6.529649,
756.353760,-6.530520,
757.699585,-6.531511,
759.045410,-6.532547,
760.391235,-6.533698,
761.737061,-6.534898,
763.082886,-6.536210,
764.428711,-6.537566,
765.774536,-6.539030,
767.120361,-6.540542,
768.466187,-6.542158,
769.812012,-6.543817,
771.157837,-6.545579,
772.503662,-6.547382,
773.849487,-6.549286,
775.195312,-6.551232,
776.541138,-6.553270,
777.886963,-6.555353,
779.232788,-6.557527,
780.578613,-6.559741,
781.924438,-6.562042,
783.270264,-6.564381,
784.616089,-6.566811,
785.961914,-6.569276,
787.307739,-6.571823,
788.653564,-6.574410,
789.999390,-6.577075,
791.345215,-6.579776,
792.691040,-6.582549,
794.036865,-6.585361,
795.382690,-6.588245,
796.728516,-6.591167,
798.074341,-6.594156,
799.420166,-6.597179,
800.765991,-6.600268,
802.111816,-6.603391,
803.457642,-6.606575,
804.803467,-6.609794,
806.149292,-6.613070,
807.495117,-6.616383,
808.840942,-6.619749,
810.186768,-6.623146,
811.532593,-6.626596,
812.878418,-6.630082,
814.224243,-6.633611,
815.570068,-6.637174,
816.915894,-6.640782,
818.261719,-6.644424,
819.607544,-6.648107,
820.953369,-6.651818,
822.299194,-6.655573,
823.645020,-6.659356,
824.990845,-6.663176,
826.336670,-6.667025,
827.682495,-6.670909,
829.028320,-6.674819,
830.374146,-6.678764,
831.719971,-6.682736,
833.065796,-6.686738,
834.411621,-6.690768,
835.757446,-6.694820,
837.103271,-6.698903,
838.449097,-6.703009,
839.794922,-6.707144,
841.140747,-6.711297,
842.486572,-6.715475,
843.832397,-6.719674,
845.178223,-6.723899,
846.524048,-6.728139,
847.869873,-6.732402,
849.215698,-6.736685,
850.561523,-6.740989,
851.907349,-6.745306,
853.253174,-6.749646,
854.598999,-6.753998,
855.944824,-6.758370,
857.290649,-6.762752,
858.636475,-6.767157,
859.982300,-6.771569,
861.328125,-6.776002,
862.673950,-6.780441,
864.019775,-6.784897,
865.365601,-6.789360,
866.711426,-6.793843,
868.057251,-6.798326,
869.403076,-6.802830,
870.748901,-6.807335,
872.094727,-6.811857,
873.440552,-6.816378,
874.786377,-6.820918,
876.132202,-6.825455,
877.478027,-6.830011,
878.823853,-6.834561,
880.169678,-6.839128,
881.515503,-6.843687,
882.861328,-6.848270,
884.207153,-6.852840,
885.552979,-6.857430,
886.898804,-6.862009,
888.244629,-6.866605,
889.590454,-6.871191,
890.936279,-6.875791,
892.282104,-6.880383,
893.627930,-6.884988,
894.973755,-6.889579,
896.319580,-6.894189,
897.665405,-6.898783,
899.011230,-6.903394,
900.357056,-6.907987,
901.702881,-6.912594,
903.048706,-6.917190,
904.394531,-6.921797,
905.740356,-6.926384,
907.086182,-6.930990,
908.432007,-6.935574,
909.777832,-6.940173,
911.123657,-6.944752,
912.469482,-6.949345,
913.815308,-6.953918,
915.161133,-6.958505,
916.506958,-6.963069,
917.852783,-6.967646,
919.198608,-6.972201,
920.544434,-6.976773,
921.890259,-6.981317,
923.236084,-6.985874,
924.581909,-6.990408,
925.927734,-6.994958,
927.273560,-6.999476,
928.619385,-7.004011,
929.965210,-7.008521,
931.311035,-7.013043,
932.656860,-7.017537,
934.002686,-7.022045,
935.348511,-7.026521,
936.694336,-7.031017,
938.040161,-7.035480,
939.385986,-7.039958,
940.731812,-7.044406,
942.077637,-7.048868,
943.423462,-7.053297,
944.769287,-7.057740,
946.115112,-7.062150,
947.460938,-7.066580,
948.806763,-7.070971,
950.152588,-7.075379,
951.498413,-7.079751,
952.844238,-7.084143,
954.190063,-7.088494,
955.535889,-7.092864,
956.881714,-7.097198,
958.227539,-7.101546,
959.573364,-7.105858,
960.919189,-7.110186,
962.265015,-7.114478,
963.610840,-7.118787,
964.956665,-7.123056,
966.302490,-7.127338,
967.648315,-7.131588,
968.994141,-7.135852,
970.339966,-7.140078,
971.685791,-7.144317,
973.031616,-7.148520,
974.377441,-7.152739,
975.723267,-7.156917,
977.069092,-7.161110,
978.414917,-7.165265,
979.760742,-7.169437,
981.106567,-7.173571,
982.452393,-7.177717,
983.798218,-7.181824,
985.144043,-7.185951,
986.489868,-7.190032,
987.835693,-7.194130,
989.181519,-7.198189,
990.527344,-7.202267,
991.873169,-7.206299,
993.218994,-7.210348,
994.564819,-7.214355,
995.910645,-7.218382,
997.256470,-7.222367,
998.602295,-7.226364,
999.948120,-7.230326,
1001.293945,-7.234299,
1002.639771,-7.238231,
1003.985596,-7.242184,
1005.331421,-7.246089,
1006.677246,-7.250016,
1008.023071,-7.253897,
1009.368896,-7.257795,
1010.714722,-7.261652,
1012.060547,-7.265526,
1013.406372,-7.269355,
1014.752197,-7.273205,
1016.098022,-7.277008,
1017.443848,-7.280833,
1018.789673,-7.284609,
1020.135498,-7.288405,
1021.481323,-7.292161,
1022.827148,-7.295933,
1024.172974,-7.299656,
1025.518799,-7.303404,
1026.864624,-7.307108,
1028.210449,-7.310827,
1029.556274,-7.314500,
1030.902100,-7.318194,
1032.247925,-7.321846,
1033.593750,-7.325516,
1034.939575,-7.329138,
1036.285400,-7.332783,
1037.631226,-7.336380,
1038.977051,-7.339997,
1040.322876,-7.343569,
1041.668701,-7.347162,
1043.014526,-7.350710,
1044.360352,-7.354279,
1045.706177,-7.357800,
1047.052002,-7.361341,
1048.397827,-7.364838,
1049.743652,-7.368358,
1051.089478,-7.371826,
1052.435303,-7.375317,
1053.781128,-7.378763,
1055.126953,-7.382232,
1056.472778,-7.385653,
1057.818604,-7.389094,
1059.164429,-7.392490,
1060.510254,-7.395911,
1061.856079,-7.399280,
1063.201904,-7.402673,
1064.547729,-7.406021,
1065.893555,-7.409389,
1067.239380,-7.412713,
1068.585205,-7.416057,
1069.931030,-7.419355,
1071.276855,-7.422676,
1072.622681,-7.425949,
1073.968506,-7.429243,
1075.314331,-7.432497,
1076.660156,-7.435770,
1078.005981,-7.438997,
1079.351807,-7.442244,
1080.697632,-7.445446,
1082.043457,-7.448675,
1083.389282,-7.451852,
1084.735107,-7.455055,
1086.080933,-7.458212,
1087.426758,-7.461389,
1088.772583,-7.464524,
1090.118408,-7.467680,
1091.464233,-7.470792,
1092.810059,-7.473928,
1094.155884,-7.477012,
1095.501709,-7.480122,
1096.847534,-7.483190,
1098.193359,-7.486278,
1099.539185,-7.489321,
1100.885010,-7.492386,
1102.230835,-7.495410,
1103.576660,-7.498455,
1104.922485,-7.501454,
1106.268311,-7.504475,
1107.614136,-7.507455,
1108.959961,-7.510456,
1110.305786,-7.513412,
1111.651611,-7.516394,
1112.997437,-7.519329,
1114.343262,-7.522290,
1115.689087,-7.525204,
1117.034912,-7.528142,
1118.380737,-7.531037,
1119.726562,-7.533953,
1121.072388,-7.536829,
1122.418213,-7.539724,
1123.764038,-7.542577,
1125.109863,-7.545455,
1126.455688,-7.548287,
1127.801514,-7.551144,
1129.147339,-7.553957,
1130.493164,-7.556798,
1131.838989,-7.559590,
1133.184814,-7.562408,
1134.530640,-7.565183,
1135.876465,-7.567981,
1137.222290,-7.570738,
1138.568115,-7.573514,
1139.913940,-7.576251,
1141.259766,-7.579014,
1142.605591,-7.581734,
1143.951416,-7.584475,
1145.297241,-7.587174,
1146.643066,-7.589901,
1147.988892,-7.592580,
1149.334717,-7.595284,
1150.680542,-7.597950,
1152.026367,-7.600637,
1153.372192,-7.603288,
1154.718018,-7.605957,
1156.063843,-7.608582,
1157.409668,-7.611239,
1158.755493,-7.613849,
1160.101318,-7.616485,
1161.447144,-7.619079,
1162.792969,-7.621698,
1164.138794,-7.624279,
1165.484619,-7.626878,
1166.830444,-7.629440,
1168.176270,-7.632029,
1169.522095,-7.634574,
1170.867920,-7.637140,
1172.213745,-7.639671,
1173.559570,-7.642227,
1174.905396,-7.644739,
1176.251221,-7.647279,
1177.597046,-7.649777,
1178.942871,-7.652304,
1180.288696,-7.654784,
1181.634521,-7.657292,
1182.980347,-7.659760,
1184.326172,-7.662254,
1185.671997,-7.664708,
1187.017822,-7.667185,
1188.363647,-7.669624,
1189.709473,-7.672088,
1191.055298,-7.674511,
1192.401123,-7.676960,
1193.746948,-7.679371,
1195.092773,-7.681810,
1196.438599,-7.684205,
1197.784424,-7.686628,
1199.130249,-7.689013,
1200.476074,-7.691423,
1201.821899,-7.693789,
1203.167725,-7.696188,
1204.513550,-7.698545,
1205.859375,-7.700928,
1207.205200,-7.703269,
1208.551025,-7.705641,
1209.896851,-7.707970,
1211.242676,-7.710331,
1212.588501,-7.712649,
1213.934326,-7.714996,
1215.280151,-7.717302,
1216.625977,-7.719635,
